# wl_(um)         transit_depth
0.24008          1.068665e-02
0.24032          1.068614e-02
0.24056          1.068563e-02
0.24080          1.068512e-02
0.24104          1.068461e-02
0.24129          1.068410e-02
0.24153          1.068359e-02
0.24177          1.068308e-02
0.24201          1.068257e-02
0.24225          1.068205e-02
0.24249          1.068154e-02
0.24274          1.068103e-02
0.24298          1.068051e-02
0.24322          1.068000e-02
0.24347          1.067948e-02
0.24371          1.067897e-02
0.24395          1.067845e-02
0.24420          1.067793e-02
0.24444          1.067742e-02
0.24469          1.067690e-02
0.24493          1.067638e-02
0.24518          1.067586e-02
0.24542          1.067534e-02
0.24567          1.067482e-02
0.24591          1.067430e-02
0.24616          1.067378e-02
0.24641          1.067326e-02
0.24665          1.067274e-02
0.24690          1.067222e-02
0.24715          1.067169e-02
0.24739          1.067117e-02
0.24764          1.067064e-02
0.24789          1.067012e-02
0.24814          1.066960e-02
0.24838          1.066907e-02
0.24863          1.066854e-02
0.24888          1.066802e-02
0.24913          1.066749e-02
0.24938          1.066696e-02
0.24963          1.066643e-02
0.24988          1.066590e-02
0.25013          1.066538e-02
0.25038          1.066485e-02
0.25063          1.066432e-02
0.25088          1.066378e-02
0.25113          1.066325e-02
0.25138          1.066272e-02
0.25163          1.066219e-02
0.25189          1.066166e-02
0.25214          1.066112e-02
0.25239          1.066059e-02
0.25264          1.066005e-02
0.25290          1.065952e-02
0.25315          1.065898e-02
0.25340          1.065845e-02
0.25366          1.065791e-02
0.25391          1.065737e-02
0.25416          1.065683e-02
0.25442          1.065630e-02
0.25467          1.065576e-02
0.25493          1.065522e-02
0.25518          1.065468e-02
0.25544          1.065414e-02
0.25569          1.065360e-02
0.25595          1.065305e-02
0.25621          1.065251e-02
0.25646          1.065197e-02
0.25672          1.065143e-02
0.25698          1.065088e-02
0.25723          1.065034e-02
0.25749          1.064979e-02
0.25775          1.064925e-02
0.25801          1.064870e-02
0.25826          1.064815e-02
0.25852          1.064761e-02
0.25878          1.064706e-02
0.25904          1.064651e-02
0.25930          1.064596e-02
0.25956          1.064541e-02
0.25982          1.064486e-02
0.26008          1.064431e-02
0.26034          1.064376e-02
0.26060          1.064321e-02
0.26086          1.064266e-02
0.26112          1.064211e-02
0.26138          1.064155e-02
0.26164          1.064100e-02
0.26190          1.064045e-02
0.26217          1.063989e-02
0.26243          1.063934e-02
0.26269          1.063878e-02
0.26295          1.063822e-02
0.26322          1.063767e-02
0.26348          1.063711e-02
0.26374          1.063655e-02
0.26401          1.063599e-02
0.26427          1.063543e-02
0.26454          1.063487e-02
0.26480          1.063431e-02
0.26507          1.063375e-02
0.26533          1.063319e-02
0.26560          1.063263e-02
0.26586          1.063207e-02
0.26613          1.063150e-02
0.26639          1.063094e-02
0.26666          1.063037e-02
0.26693          1.062981e-02
0.26720          1.062924e-02
0.26746          1.062868e-02
0.26773          1.062811e-02
0.26800          1.062754e-02
0.26827          1.062698e-02
0.26853          1.062641e-02
0.26880          1.062584e-02
0.26907          1.062527e-02
0.26934          1.062470e-02
0.26961          1.062413e-02
0.26988          1.062356e-02
0.27015          1.062299e-02
0.27042          1.062241e-02
0.27069          1.062184e-02
0.27096          1.062127e-02
0.27123          1.062069e-02
0.27150          1.062012e-02
0.27178          1.061954e-02
0.27205          1.061897e-02
0.27232          1.061839e-02
0.27259          1.061782e-02
0.27287          1.061724e-02
0.27314          1.061666e-02
0.27341          1.061608e-02
0.27369          1.061550e-02
0.27396          1.061492e-02
0.27423          1.061434e-02
0.27451          1.061376e-02
0.27478          1.061318e-02
0.27506          1.061260e-02
0.27533          1.061202e-02
0.27561          1.061143e-02
0.27588          1.061085e-02
0.27616          1.061026e-02
0.27644          1.060968e-02
0.27671          1.060909e-02
0.27699          1.060851e-02
0.27727          1.060792e-02
0.27754          1.060733e-02
0.27782          1.060675e-02
0.27810          1.060616e-02
0.27838          1.060557e-02
0.27866          1.060498e-02
0.27894          1.060439e-02
0.27921          1.060380e-02
0.27949          1.060321e-02
0.27977          1.060261e-02
0.28005          1.060202e-02
0.28033          1.060143e-02
0.28061          1.060083e-02
0.28089          1.060024e-02
0.28118          1.059964e-02
0.28146          1.059905e-02
0.28174          1.059845e-02
0.28202          1.059786e-02
0.28230          1.059726e-02
0.28258          1.059666e-02
0.28287          1.059606e-02
0.28315          1.059546e-02
0.28343          1.059486e-02
0.28372          1.059426e-02
0.28400          1.059366e-02
0.28429          1.059306e-02
0.28457          1.059246e-02
0.28485          1.059185e-02
0.28514          1.059125e-02
0.28542          1.059065e-02
0.28571          1.059004e-02
0.28600          1.058944e-02
0.28628          1.058883e-02
0.28657          1.058823e-02
0.28686          1.058762e-02
0.28714          1.058701e-02
0.28743          1.058640e-02
0.28772          1.058579e-02
0.28801          1.058518e-02
0.28829          1.058457e-02
0.28858          1.058396e-02
0.28887          1.058335e-02
0.28916          1.058274e-02
0.28945          1.058213e-02
0.28974          1.058151e-02
0.29003          1.058090e-02
0.29032          1.058029e-02
0.29061          1.057967e-02
0.29090          1.057906e-02
0.29119          1.057844e-02
0.29148          1.057782e-02
0.29177          1.057721e-02
0.29207          1.057659e-02
0.29236          1.057597e-02
0.29265          1.057535e-02
0.29294          1.057473e-02
0.29324          1.057411e-02
0.29353          1.057349e-02
0.29382          1.057287e-02
0.29412          1.057224e-02
0.29441          1.057162e-02
0.29471          1.057100e-02
0.29500          1.057037e-02
0.29530          1.056975e-02
0.29559          1.056912e-02
0.29589          1.056850e-02
0.29618          1.056787e-02
0.29648          1.056724e-02
0.29678          1.056661e-02
0.29707          1.056599e-02
0.29737          1.056536e-02
0.29767          1.056473e-02
0.29797          1.056410e-02
0.29826          1.056346e-02
0.29856          1.056283e-02
0.29886          1.056220e-02
0.29916          1.056157e-02
0.29946          1.056093e-02
0.29976          1.056030e-02
0.30006          1.055966e-02
0.30036          1.055903e-02
0.30066          1.055842e-02
0.30096          1.055783e-02
0.30126          1.055724e-02
0.30156          1.055665e-02
0.30186          1.055606e-02
0.30217          1.055548e-02
0.30247          1.055490e-02
0.30277          1.055434e-02
0.30307          1.055385e-02
0.30338          1.055521e-02
0.30368          1.058314e-02
0.30399          1.055217e-02
0.30429          1.055144e-02
0.30459          1.055082e-02
0.30490          1.055022e-02
0.30520          1.054963e-02
0.30551          1.054905e-02
0.30581          1.054847e-02
0.30612          1.054788e-02
0.30643          1.054730e-02
0.30673          1.054673e-02
0.30704          1.054615e-02
0.30735          1.054557e-02
0.30765          1.054500e-02
0.30796          1.054442e-02
0.30827          1.054386e-02
0.30858          1.054329e-02
0.30889          1.054274e-02
0.30920          1.054222e-02
0.30951          1.054179e-02
0.30982          1.054177e-02
0.31013          1.057408e-02
0.31044          1.056971e-02
0.31075          1.054005e-02
0.31106          1.053892e-02
0.31137          1.053821e-02
0.31168          1.053758e-02
0.31199          1.053699e-02
0.31230          1.053640e-02
0.31262          1.053582e-02
0.31293          1.053525e-02
0.31324          1.053468e-02
0.31356          1.053411e-02
0.31387          1.053354e-02
0.31418          1.053298e-02
0.31450          1.053241e-02
0.31481          1.053185e-02
0.31513          1.053129e-02
0.31544          1.053074e-02
0.31576          1.053018e-02
0.31607          1.052963e-02
0.31639          1.052908e-02
0.31671          1.052853e-02
0.31702          1.052799e-02
0.31734          1.052744e-02
0.31766          1.052691e-02
0.31798          1.052637e-02
0.31830          1.052584e-02
0.31861          1.052532e-02
0.31893          1.052480e-02
0.31925          1.052429e-02
0.31957          1.052380e-02
0.31989          1.052332e-02
0.32021          1.052286e-02
0.32053          1.052246e-02
0.32085          1.052217e-02
0.32117          1.052229e-02
0.32149          1.052556e-02
0.32182          1.061001e-02
0.32214          1.052537e-02
0.32246          1.052059e-02
0.32278          1.051954e-02
0.32311          1.051895e-02
0.32343          1.051850e-02
0.32375          1.051813e-02
0.32408          1.051782e-02
0.32440          1.051757e-02
0.32473          1.051739e-02
0.32505          1.051728e-02
0.32538          1.051727e-02
0.32570          1.051738e-02
0.32603          1.051764e-02
0.32635          1.051810e-02
0.32668          1.051881e-02
0.32701          1.051987e-02
0.32733          1.052141e-02
0.32766          1.052362e-02
0.32799          1.052679e-02
0.32832          1.053139e-02
0.32865          1.053816e-02
0.32897          1.054840e-02
0.32930          1.056462e-02
0.32963          1.059262e-02
0.32996          1.065128e-02
0.33029          1.087095e-02
0.33062          1.069592e-02
0.33095          1.060766e-02
0.33128          1.057148e-02
0.33162          1.055099e-02
0.33195          1.053789e-02
0.33228          1.052888e-02
0.33261          1.052240e-02
0.33295          1.051755e-02
0.33328          1.051381e-02
0.33361          1.051083e-02
0.33395          1.050839e-02
0.33428          1.050636e-02
0.33461          1.050461e-02
0.33495          1.050310e-02
0.33528          1.050175e-02
0.33562          1.050053e-02
0.33596          1.049943e-02
0.33629          1.049840e-02
0.33663          1.049745e-02
0.33696          1.049655e-02
0.33730          1.049570e-02
0.33764          1.049489e-02
0.33798          1.049411e-02
0.33832          1.049336e-02
0.33865          1.049263e-02
0.33899          1.049193e-02
0.33933          1.049124e-02
0.33967          1.049057e-02
0.34001          1.048992e-02
0.34035          1.048928e-02
0.34069          1.048866e-02
0.34103          1.048805e-02
0.34137          1.048746e-02
0.34172          1.048688e-02
0.34206          1.048633e-02
0.34240          1.048582e-02
0.34274          1.048537e-02
0.34309          1.048502e-02
0.34343          1.048488e-02
0.34377          1.048533e-02
0.34412          1.048787e-02
0.34446          1.050724e-02
0.34480          1.064299e-02
0.34515          1.049781e-02
0.34550          1.048467e-02
0.34584          1.048166e-02
0.34619          1.048022e-02
0.34653          1.047924e-02
0.34688          1.047845e-02
0.34723          1.047776e-02
0.34757          1.047711e-02
0.34792          1.047649e-02
0.34827          1.047589e-02
0.34862          1.047530e-02
0.34897          1.047473e-02
0.34932          1.047416e-02
0.34967          1.047359e-02
0.35002          1.047304e-02
0.35037          1.047248e-02
0.35072          1.047193e-02
0.35107          1.047138e-02
0.35142          1.047083e-02
0.35177          1.047029e-02
0.35212          1.046974e-02
0.35247          1.046920e-02
0.35283          1.046866e-02
0.35318          1.046813e-02
0.35353          1.046759e-02
0.35389          1.046705e-02
0.35424          1.046652e-02
0.35460          1.046599e-02
0.35495          1.046546e-02
0.35531          1.046493e-02
0.35566          1.046440e-02
0.35602          1.046387e-02
0.35637          1.046334e-02
0.35673          1.046282e-02
0.35709          1.046229e-02
0.35744          1.046177e-02
0.35780          1.046125e-02
0.35816          1.046073e-02
0.35852          1.046020e-02
0.35888          1.045968e-02
0.35924          1.045917e-02
0.35960          1.045865e-02
0.35995          1.045813e-02
0.36032          1.045762e-02
0.36068          1.045710e-02
0.36104          1.045659e-02
0.36140          1.045607e-02
0.36176          1.045556e-02
0.36212          1.045505e-02
0.36248          1.045454e-02
0.36285          1.045403e-02
0.36321          1.045352e-02
0.36357          1.045301e-02
0.36394          1.045251e-02
0.36430          1.045200e-02
0.36466          1.045150e-02
0.36503          1.045099e-02
0.36540          1.045049e-02
0.36576          1.044999e-02
0.36613          1.044948e-02
0.36649          1.044898e-02
0.36686          1.044848e-02
0.36723          1.044798e-02
0.36759          1.044749e-02
0.36796          1.044699e-02
0.36833          1.044649e-02
0.36870          1.044600e-02
0.36907          1.044550e-02
0.36944          1.044501e-02
0.36981          1.044452e-02
0.37018          1.044402e-02
0.37055          1.044353e-02
0.37092          1.044304e-02
0.37129          1.044255e-02
0.37166          1.044206e-02
0.37203          1.044158e-02
0.37240          1.044109e-02
0.37278          1.044060e-02
0.37315          1.044012e-02
0.37352          1.043963e-02
0.37390          1.043915e-02
0.37427          1.043867e-02
0.37465          1.043819e-02
0.37502          1.043771e-02
0.37540          1.043723e-02
0.37577          1.043675e-02
0.37615          1.043627e-02
0.37652          1.043580e-02
0.37690          1.043532e-02
0.37728          1.043484e-02
0.37765          1.043437e-02
0.37803          1.043389e-02
0.37841          1.043342e-02
0.37879          1.043295e-02
0.37917          1.043248e-02
0.37955          1.043201e-02
0.37993          1.043154e-02
0.38031          1.043107e-02
0.38069          1.043060e-02
0.38107          1.043014e-02
0.38145          1.042967e-02
0.38183          1.042921e-02
0.38221          1.042875e-02
0.38260          1.042828e-02
0.38298          1.042782e-02
0.38336          1.042736e-02
0.38375          1.042690e-02
0.38413          1.042644e-02
0.38451          1.042599e-02
0.38490          1.042553e-02
0.38528          1.042508e-02
0.38567          1.042462e-02
0.38605          1.042417e-02
0.38644          1.042372e-02
0.38683          1.042327e-02
0.38721          1.042282e-02
0.38760          1.042237e-02
0.38799          1.042187e-02
0.38838          1.042136e-02
0.38877          1.042091e-02
0.38916          1.042046e-02
0.38954          1.042002e-02
0.38993          1.041958e-02
0.39032          1.041915e-02
0.39072          1.041871e-02
0.39111          1.041827e-02
0.39150          1.041784e-02
0.39189          1.041740e-02
0.39228          1.041697e-02
0.39267          1.041655e-02
0.39307          1.041612e-02
0.39346          1.041569e-02
0.39385          1.041527e-02
0.39425          1.041485e-02
0.39464          1.041444e-02
0.39504          1.041402e-02
0.39543          1.041362e-02
0.39583          1.041321e-02
0.39622          1.041281e-02
0.39662          1.041242e-02
0.39702          1.041204e-02
0.39741          1.041167e-02
0.39781          1.041129e-02
0.39821          1.041093e-02
0.39861          1.041059e-02
0.39901          1.041028e-02
0.39941          1.040998e-02
0.39981          1.040973e-02
0.40021          1.040952e-02
0.40061          1.040937e-02
0.40101          1.040933e-02
0.40141          1.040944e-02
0.40181          1.040979e-02
0.40221          1.041056e-02
0.40261          1.041210e-02
0.40302          1.041521e-02
0.40342          1.042216e-02
0.40382          1.044068e-02
0.40423          1.050969e-02
0.40463          1.068160e-02
0.40504          1.054953e-02
0.40544          1.044045e-02
0.40585          1.042016e-02
0.40625          1.041223e-02
0.40666          1.040822e-02
0.40707          1.040582e-02
0.40747          1.040420e-02
0.40788          1.040300e-02
0.40829          1.040205e-02
0.40870          1.040126e-02
0.40911          1.040056e-02
0.40952          1.039994e-02
0.40993          1.039936e-02
0.41034          1.039883e-02
0.41075          1.039831e-02
0.41116          1.039783e-02
0.41157          1.039735e-02
0.41198          1.039689e-02
0.41239          1.039644e-02
0.41281          1.039600e-02
0.41322          1.039557e-02
0.41363          1.039514e-02
0.41405          1.039472e-02
0.41446          1.039431e-02
0.41488          1.039389e-02
0.41529          1.039349e-02
0.41571          1.039308e-02
0.41612          1.039268e-02
0.41654          1.039229e-02
0.41696          1.039188e-02
0.41737          1.039148e-02
0.41779          1.039109e-02
0.41821          1.039070e-02
0.41863          1.039031e-02
0.41905          1.038992e-02
0.41946          1.038953e-02
0.41988          1.038915e-02
0.42030          1.038876e-02
0.42072          1.038838e-02
0.42115          1.038800e-02
0.42157          1.038891e-02
0.42199          1.038725e-02
0.42241          1.038686e-02
0.42283          1.038648e-02
0.42326          1.038611e-02
0.42368          1.038574e-02
0.42410          1.038604e-02
0.42453          1.038596e-02
0.42495          1.038474e-02
0.42538          1.038446e-02
0.42580          1.038388e-02
0.42623          1.038352e-02
0.42666          1.038315e-02
0.42708          1.038279e-02
0.42751          1.038321e-02
0.42794          1.038334e-02
0.42837          1.038170e-02
0.42880          1.038149e-02
0.42922          1.038127e-02
0.42965          1.038062e-02
0.43008          1.038026e-02
0.43051          1.037990e-02
0.43094          1.037955e-02
0.43138          1.037920e-02
0.43181          1.037884e-02
0.43224          1.037952e-02
0.43267          1.037977e-02
0.43310          1.037779e-02
0.43354          1.037744e-02
0.43397          1.037709e-02
0.43441          1.037788e-02
0.43484          1.037641e-02
0.43528          1.037605e-02
0.43571          1.037570e-02
0.43615          1.037536e-02
0.43658          1.037502e-02
0.43702          1.037467e-02
0.43746          1.037433e-02
0.43789          1.037399e-02
0.43833          1.037365e-02
0.43877          1.037333e-02
0.43921          1.037465e-02
0.43965          1.037498e-02
0.44009          1.037232e-02
0.44053          1.037198e-02
0.44097          1.037165e-02
0.44141          1.037136e-02
0.44185          1.037101e-02
0.44230          1.037175e-02
0.44274          1.037047e-02
0.44318          1.037006e-02
0.44362          1.036970e-02
0.44407          1.036936e-02
0.44451          1.036904e-02
0.44496          1.036872e-02
0.44540          1.036839e-02
0.44585          1.036808e-02
0.44629          1.036776e-02
0.44674          1.036741e-02
0.44719          1.036712e-02
0.44764          1.036680e-02
0.44808          1.036646e-02
0.44853          1.036616e-02
0.44898          1.036583e-02
0.44943          1.036741e-02
0.44988          1.036799e-02
0.45033          1.036490e-02
0.45078          1.036456e-02
0.45123          1.036425e-02
0.45168          1.036392e-02
0.45213          1.036363e-02
0.45259          1.036331e-02
0.45304          1.036300e-02
0.45349          1.036268e-02
0.45395          1.036239e-02
0.45440          1.036260e-02
0.45486          1.036262e-02
0.45531          1.036146e-02
0.45577          1.036115e-02
0.45622          1.036085e-02
0.45668          1.036054e-02
0.45714          1.036024e-02
0.45759          1.035994e-02
0.45805          1.035964e-02
0.45851          1.035934e-02
0.45897          1.035905e-02
0.45943          1.035874e-02
0.45989          1.035845e-02
0.46035          1.035815e-02
0.46081          1.035786e-02
0.46127          1.035757e-02
0.46173          1.035727e-02
0.46219          1.035698e-02
0.46265          1.035669e-02
0.46312          1.035644e-02
0.46358          1.035673e-02
0.46404          1.035583e-02
0.46451          1.035747e-02
0.46497          1.035530e-02
0.46544          1.035498e-02
0.46590          1.035598e-02
0.46637          1.035549e-02
